Photon    Tot. w/  
Energy    Coherent 

2.000E+00 4.180E-02 
2.044E+00 4.139E-02 
3.000E+00 3.512E-02